wl (m),tx (fraction),refractive index
5.05e-07,0.0014176,2.05
5.0506e-07,0.0014728
5.051200000000001e-07,0.001528
5.0518e-07,0.0015832
5.0524e-07,0.0016383
5.053000000000001e-07,0.0016935
5.0536e-07,0.0017487
5.054200000000001e-07,0.0018039
5.0548e-07,0.0018591
5.0554e-07,0.0019143
5.056000000000001e-07,0.0019711
5.0566e-07,0.0020382
5.057200000000001e-07,0.0021053
5.0578e-07,0.0021724
5.0584e-07,0.0022394
5.059e-07,0.0023065
5.0596e-07,0.0023736
5.0602e-07,0.0024407
5.0608e-07,0.0025077
5.061400000000001e-07,0.002691
5.062e-07,0.0029306
5.0627e-07,0.0031702
5.0633e-07,0.0034099
5.0639e-07,0.0036495
5.0645e-07,0.0038891
5.0651e-07,0.0041287
5.065700000000001e-07,0.0043683
5.0663e-07,0.0046079
5.0669e-07,0.0048475
5.067500000000001e-07,0.0050871
5.0681e-07,0.0054335
5.0687e-07,0.0058039
5.069300000000001e-07,0.0061742
5.0699e-07,0.0065445
5.070500000000001e-07,0.0069149
5.0711e-07,0.0072852
5.0717e-07,0.0076555
5.072300000000001e-07,0.0080259
5.0729e-07,0.0084883
5.073500000000001e-07,0.009049
5.074100000000001e-07,0.0096097
5.0747e-07,0.01017
5.0753e-07,0.010731
5.0759e-07,0.011292
5.0765e-07,0.011852
5.0771e-07,0.012507
5.0777e-07,0.013546
5.0783e-07,0.014585
5.0789e-07,0.015624
5.0795e-07,0.016793
5.0801e-07,0.017998
5.080700000000001e-07,0.019331
5.0813e-07,0.021037
5.0819e-07,0.022742
5.082500000000001e-07,0.024548
5.0831e-07,0.026368
5.0837e-07,0.028715
5.084300000000001e-07,0.031339
5.0849e-07,0.034218
5.085500000000001e-07,0.03719
5.0861e-07,0.040162
5.0867e-07,0.043242
5.087300000000001e-07,0.046884
5.088e-07,0.050525
5.088600000000001e-07,0.055727
5.0892e-07,0.061388
5.089800000000001e-07,0.067414
5.090400000000001e-07,0.073567
5.091e-07,0.080099
5.091600000000001e-07,0.087749
5.092200000000001e-07,0.096634
5.0928e-07,0.10624
5.0934e-07,0.11625
5.094e-07,0.12658
5.0946e-07,0.13951
5.0952e-07,0.15397
5.0958e-07,0.16843
5.0964e-07,0.18485
5.097000000000001e-07,0.20164
5.0976e-07,0.22077
5.0982e-07,0.24117
5.098800000000001e-07,0.26156
5.0994e-07,0.28195
5.1e-07,0.30336
5.100600000000001e-07,0.33061
5.1012e-07,0.35852
5.101800000000001e-07,0.38764
5.1024e-07,0.41659
5.103e-07,0.44273
5.103600000000001e-07,0.4703
5.1042e-07,0.50006
5.1048e-07,0.52754
5.105400000000001e-07,0.55441
5.106e-07,0.58336
5.106600000000001e-07,0.60597
5.107200000000001e-07,0.62981
5.1078e-07,0.65321
5.1084e-07,0.67322
5.109000000000001e-07,0.69102
5.1096e-07,0.70567
5.1102e-07,0.71886
5.1108e-07,0.73188
5.1114e-07,0.74344
5.112e-07,0.75114
5.1127e-07,0.75803
5.113300000000001e-07,0.76436
5.1139e-07,0.76907
5.1145e-07,0.77259
5.115100000000001e-07,0.77603
5.1157e-07,0.77713
5.1163e-07,0.77792
5.1169e-07,0.77845
5.1175e-07,0.77856
5.118100000000001e-07,0.77833
5.1187e-07,0.77775
5.1193e-07,0.77676
5.119900000000001e-07,0.77577
5.1205e-07,0.77531
5.1211e-07,0.7749
5.1217e-07,0.77454
5.1223e-07,0.77422
5.1229e-07,0.77391
5.123500000000001e-07,0.77357
5.1241e-07,0.7732
5.124700000000001e-07,0.77278
5.1253e-07,0.77237
5.1259e-07,0.77215
5.1265e-07,0.77202
5.1271e-07,0.7719
5.1277e-07,0.77177
5.128300000000001e-07,0.77144
5.1289e-07,0.77111
5.129500000000001e-07,0.77078
5.130100000000001e-07,0.77045
5.130700000000001e-07,0.76971
5.1313e-07,0.76859
5.131900000000001e-07,0.7677
5.1325e-07,0.7674
5.1331e-07,0.76702
5.1337e-07,0.76619
5.1343e-07,0.76485
5.134900000000001e-07,0.76253
5.135499999999999e-07,0.76038
5.1361e-07,0.75846
5.1367e-07,0.75628
5.1373e-07,0.75367
5.138e-07,0.75087
5.1386e-07,0.74785
5.1392e-07,0.743
5.139800000000001e-07,0.73807
5.1404e-07,0.73222
5.141000000000001e-07,0.72636
5.1416e-07,0.71959
5.1422e-07,0.71222
5.1428e-07,0.70467
5.1434e-07,0.69648
5.144e-07,0.68654
5.144600000000001e-07,0.67515
5.1452e-07,0.66269
5.145800000000001e-07,0.64866
5.146400000000001e-07,0.63417
5.147000000000001e-07,0.61936
5.1476e-07,0.60316
5.148200000000001e-07,0.58196
5.1488e-07,0.56344
5.149400000000001e-07,0.54445
5.15e-07,0.52227
5.1506e-07,0.49752
5.151200000000001e-07,0.47478
5.151799999999999e-07,0.45334
5.1524e-07,0.43274
5.153e-07,0.40919
5.1536e-07,0.38535
5.1542e-07,0.36524
5.154800000000001e-07,0.34349
5.1554e-07,0.31861
5.156000000000001e-07,0.29669
5.1566e-07,0.27688
5.1572e-07,0.25854
5.1578e-07,0.23988
5.1584e-07,0.2212
5.159e-07,0.2048
5.159600000000001e-07,0.18989
5.1602e-07,0.17624
5.160800000000001e-07,0.16328
5.161400000000001e-07,0.14977
5.162e-07,0.13615
5.162700000000001e-07,0.12564
5.163300000000001e-07,0.11562
5.1639e-07,0.10561
5.1645e-07,0.09635
5.1651e-07,0.089435
5.165700000000001e-07,0.082519
5.1663e-07,0.07599
5.166900000000001e-07,0.070022
5.167500000000001e-07,0.064374
5.168099999999999e-07,0.059476
5.1687e-07,0.054578
5.1693e-07,0.049698
5.1699e-07,0.046333
5.1705e-07,0.042968
5.171100000000001e-07,0.039615
5.1717e-07,0.036755
5.172300000000001e-07,0.033896
5.1729e-07,0.031061
5.1735e-07,0.028872
5.1741e-07,0.026683
5.1747e-07,0.02479
5.1753e-07,0.023179
5.175900000000001e-07,0.021567
5.1765e-07,0.019956
5.177100000000001e-07,0.018616
5.177700000000001e-07,0.017352
5.1783e-07,0.016089
5.1789e-07,0.014901
5.179500000000001e-07,0.013997
5.1801e-07,0.013092
5.180700000000001e-07,0.012188
5.1813e-07,0.011355
5.181900000000001e-07,0.01066
5.182500000000001e-07,0.0099648
5.183099999999999e-07,0.0092697
5.1837e-07,0.0088037
5.1843e-07,0.0084118
5.1849e-07,0.00802
5.1855e-07,0.0076282
5.186100000000001e-07,0.0072364
5.1867e-07,0.0068715
5.187300000000001e-07,0.0065176
5.188e-07,0.0061638
5.188600000000001e-07,0.00581
5.1892e-07,0.0054841
5.1898e-07,0.0051835
5.1904e-07,0.0048829
5.191e-07,0.0045992
5.1916e-07,0.0043649
5.192200000000001e-07,0.0041306
5.1928e-07,0.0038963
5.193400000000001e-07,0.0036624
5.194000000000001e-07,0.0034335
5.1946e-07,0.0032045
5.1952e-07,0.0029756
5.1958e-07,0.0027466
5.1964e-07,0.0025176
5.197000000000001e-07,0.0022887
5.1976e-07,0.0021096
5.198200000000001e-07,0.0019522
5.198800000000001e-07,0.0017947
5.1994e-07,0.0016373
5.2e-07,0.0014799
